 Au Density=19.32
 Energy(eV), Delta, Beta
  30.  0.153792322  0.549643338
  30.4181843  0.170580178  0.54826504
  30.8421955  0.18453823  0.542276204
  31.2721214  0.19882378  0.535783827
  31.7080383  0.218878135  0.521806717
  32.150032  0.227999225  0.499722779
  32.5981827  0.230446294  0.481251299
  33.0525818  0.231495038  0.46591419
  33.5133171  0.232590765  0.451959014
  33.9804764  0.233223572  0.438420385
  34.4541473  0.233286321  0.42528668
  34.9344177  0.232778057  0.41253081
  35.4213829  0.231651664  0.400140703
  35.9151382  0.229945689  0.388121098
  36.4157791  0.227543131  0.376463592
  36.9233932  0.224330127  0.365784049
  37.4380875  0.220881969  0.356333166
  37.9599533  0.218079567  0.347669184
  38.4890938  0.215512767  0.339214474
  39.0256119  0.213026881  0.330966502
  39.5696068  0.210473791  0.322918206
  40.1211853  0.207736552  0.31531015
  40.6804543  0.205160603  0.30814749
  41.2475166  0.202887446  0.301286638
  41.8224831  0.200810343  0.294580132
  42.405468  0.198879361  0.288022012
  42.9965744  0.197136313  0.281609029
  43.5959282  0.195742771  0.275341004
  44.2036324  0.195055202  0.268816441
  44.8198051  0.194133967  0.26150161
  45.4445686  0.192560449  0.253799528
  46.0780411  0.190471604  0.246323436
  46.7203445  0.188117132  0.239056647
  47.3715973  0.185607553  0.231899455
  48.0319328  0.182662174  0.224799469
  48.7014732  0.179344505  0.21790497
  49.3803444  0.175494671  0.2112225
  50.0686798  0.170776099  0.205356091
  50.7666092  0.16579856  0.200726718
  51.4742699  0.161908358  0.197048634
  52.1917915  0.158622369  0.193437442
  52.9193192  0.155572042  0.189893827
  53.6569862  0.152562514  0.186414301
  54.4049339  0.149253324  0.183448583
  55.163311  0.146369472  0.181181431
  55.9322586  0.144289434  0.17935802
  56.7119217  0.142790094  0.177553311
  57.5024567  0.141782597  0.175766498
  58.3040123  0.141481057  0.17399767
  59.1167336  0.142287806  0.171703473
  59.9407921  0.142920256  0.168615609
  60.7763329  0.143349633  0.165284008
  61.6235237  0.143951774  0.162018299
  62.4825172  0.145256504  0.158437297
  63.3534927  0.147577286  0.153586403
  64.2366028  0.148184776  0.147411659
  65.1320343  0.148049772  0.141411006
  66.0399323  0.147272989  0.135144353
  66.960495  0.145865366  0.128998265
  67.8938904  0.143917337  0.123131841
  68.8402939  0.141474441  0.117532335
  69.7998886  0.138513744  0.112309888
  70.7728577  0.135268047  0.108203813
  71.7593994  0.132507592  0.104534507
  72.7596817  0.129904628  0.101002328
  73.7739182  0.12728563  0.097686246
  74.8022842  0.124816  0.0946622938
  75.844986  0.122639604  0.0918687209
  76.9022217  0.1207688  0.0891030878
  77.9741974  0.119298518  0.0861474872
  79.0611115  0.117417462  0.082799837
  80.1631851  0.115307204  0.0795816332
  81.2806168  0.112912454  0.0764887333
  82.4136276  0.109830536  0.0741740763
  83.5624237  0.107587419  0.0733647645
  84.7272415  0.107667647  0.0730995387
  85.9082947  0.108085461  0.0693679675
  87.1058121  0.107524775  0.0657591522
  88.320015  0.106351733  0.0618373714
  89.5511475  0.104730055  0.0580916107
  90.7994385  0.102873012  0.0545728505
  92.0651398  0.100834124  0.0511210896
  93.3484802  0.0985545516  0.047691185
  94.649704  0.0959815681  0.0445114784
  95.9690704  0.0931195468  0.0417903028
  97.3068314  0.0904534385  0.0394341275
  98.6632385  0.0879154503  0.0372235849
  100.038544  0.0854682401  0.035136953
  101.433029  0.0830886886  0.0331056342
  102.846954  0.0807276741  0.0311077721
  104.280579  0.0783212483  0.0291960426
  105.734192  0.0758877024  0.0274013989
  107.208076  0.0734095573  0.0257173777
  108.702492  0.0709269941  0.0242731795
  110.217751  0.0685524493  0.02298389
  111.754128  0.0662919804  0.0217852443
  113.311913  0.0641156137  0.0206491388
  114.891418  0.0619986914  0.019572312
  116.492943  0.0599303544  0.0185527559
  118.116798  0.0579094253  0.0176186245
  119.763275  0.0559628271  0.0167441145
  121.432716  0.054079093  0.0159148294
  123.125427  0.0522525422  0.0151265869
  124.841721  0.0504826419  0.014377404
  126.581955  0.0487850644  0.0136539815
  128.346436  0.0471810997  0.0129218185
  130.135513  0.0455195308  0.012118144
  131.949539  0.0437939987  0.0113645354
  133.788834  0.041984126  0.0107169459
  135.653778  0.0402425751  0.0102332551
  137.544724  0.0386097543  0.00984230079
  139.462021  0.0370549113  0.00946628023
  141.406052  0.0355489813  0.00910463184
  143.377167  0.0340639204  0.00875683315
  145.375778  0.0325561725  0.00850432552
  147.402222  0.0311487336  0.00832511578
  149.45694  0.0298261605  0.00816496089
  151.540268  0.0285612457  0.00800790731
  153.652664  0.027332278  0.00785387587
  155.794495  0.0261201765  0.00770644797
  157.966202  0.024890976  0.00758087402
  160.168167  0.0237331614  0.00758306822
  162.400818  0.0226457398  0.0075852205
  164.664597  0.0216095392  0.00758729735
  166.95993  0.0206059031  0.00758942543
  169.287262  0.0196010582  0.00761136273
  171.647034  0.0185959805  0.00768630067
  174.039703  0.0176807102  0.00783454068
  176.465729  0.0168476868  0.00798582938
  178.925552  0.0160657503  0.00813987758
  181.419678  0.015328181  0.0082968967
  183.948563  0.0146319931  0.00845856033
  186.512726  0.0139762908  0.00862525497
  189.112595  0.0133605553  0.00879628025
  191.748734  0.0127834072  0.00897083525
  194.4216  0.0122449482  0.00914862845
  197.131729  0.0117478585  0.00933009479
  199.879639  0.011300127  0.00951008126
  202.665863  0.0108857229  0.00967819896
  205.490906  0.0104991151  0.00984063093
  208.355347  0.0101442309  0.0100058243
  211.259705  0.00983429328  0.0101730516
  214.204544  0.00960165728  0.0103378296
  217.190445  0.00937836431  0.010398523
  220.217957  0.00914372224  0.0104578603
  223.287674  0.00891437847  0.0105174528
  226.400192  0.00869888254  0.0105774095
  229.556091  0.0085045211  0.0106377676
  232.755981  0.00833708141  0.010690975
  236.000458  0.00819415599  0.0107118189
  239.290176  0.00804730039  0.0107149016
  242.625763  0.00790201966  0.0107178437
  246.007828  0.00776735554  0.0107208434
  249.437057  0.00765493046  0.0107238842
  252.914062  0.00756024383  0.0107102022
  256.439545  0.00746934908  0.0106698908
  260.01416  0.0073741544  0.0106264735
  263.638641  0.00728395255  0.0105832173
  267.313599  0.00720431702  0.0105401669
  271.039825  0.00714256288  0.0104972851
  274.817963  0.00710585155  0.0104314806
  278.648773  0.00707190577  0.0103362892
  282.53299  0.00702055683  0.0102237668
  286.471375  0.00695625274  0.0101124672
  290.4646  0.00688985316  0.0100023467
  294.513519  0.00682378747  0.00989349373
  298.618896  0.00675969105  0.00978577975
  302.781494  0.00669921655  0.00967924669
  307.002106  0.00664595282  0.00957387686
  311.281525  0.00660003349  0.00946265459
  315.620605  0.00655633025  0.00933752954
  320.020203  0.00650693523  0.00920916535
  324.48111  0.00645377673  0.00908256043
  329.004181  0.0064013158  0.00895768218
  333.590363  0.0063506458  0.00883454084
  338.240417  0.00630307151  0.0087131029
  342.955322  0.00626032241  0.00859331153
  347.735901  0.00622663321  0.00847493205
  352.58316  0.00620846217  0.00835503452
  357.497986  0.0061843521  0.00819594227
  362.481323  0.00614811806  0.00803989172
  367.534119  0.00610443251  0.00788680371
  372.657349  0.00605684752  0.00773663446
  377.85199  0.00600741245  0.00758933509
  383.119019  0.00595727144  0.00744484412
  388.459473  0.00590748526  0.00730309589
  393.87439  0.00585963018  0.00716403546
  399.364807  0.00581881823  0.00702761998
  404.931732  0.00578210317  0.0068792766
  410.576233  0.00573971821  0.00672452012
  416.299469  0.00568928057  0.00656992523
  422.102448  0.0056332266  0.00641887123
  427.986359  0.00557476468  0.00627130037
  433.95224  0.0055147917  0.0061271172
  440.001282  0.00545417937  0.0059862379
  446.134674  0.00539517449  0.00584861869
  452.353577  0.00533773564  0.00571049517
  458.659119  0.00527821016  0.00557122659
  465.052582  0.00521504972  0.00543288933
  471.535156  0.00514950184  0.00529799471
  478.108093  0.00508261193  0.00516645284
  484.772644  0.00501487544  0.00503815711
  491.530151  0.00494674686  0.00491306465
  498.381775  0.00487851631  0.00479107723
  505.328979  0.00481069228  0.00467211008
  512.372986  0.00474330178  0.00455556717
  519.515198  0.00467598205  0.00444104755
  526.756958  0.00460840529  0.00432908861
  534.09967  0.00454095704  0.0042199404
  541.544739  0.00447393628  0.00411354611
  549.093506  0.00440752506  0.00400983728
  556.74762  0.00434192177  0.00390874268
  564.508362  0.00427762931  0.00380999455
  572.377319  0.00421443768  0.00371294934
  580.355957  0.00415127911  0.00361704151
  588.445801  0.00408831937  0.00352361961
  596.648438  0.00402602972  0.00343260146
  604.965332  0.00396460807  0.00334393699
  613.398315  0.00390424766  0.00325756101
  621.948669  0.00384515733  0.00317341788
  630.618347  0.00378763722  0.00309144845
  639.408813  0.00373229594  0.00301159685
  648.321838  0.00368036027  0.00293372548
  657.35907  0.00363315828  0.00285047665
  666.522278  0.00358227128  0.00276421523
  675.813293  0.00352770253  0.00267966324
  685.233704  0.0034712858  0.00259769592
  694.785522  0.0034142402  0.00251823245
  704.470398  0.0033568982  0.00244120671
  714.290344  0.00329948589  0.0023665342
  724.247192  0.00324182864  0.00229414785
  734.342834  0.00318471412  0.00222469121
  744.579163  0.0031284634  0.00215743878
  754.958191  0.00307308487  0.00209222827
  765.481934  0.00301861507  0.00202898821
  776.152344  0.00296512363  0.00196765829
  786.971436  0.00291287503  0.00190818275
  797.941406  0.00286350236  0.00185049267
  809.06427  0.00281420513  0.00179079419
  820.342224  0.00276424619  0.00173280074
  831.777283  0.00271441415  0.00167668692
  843.371826  0.00266518863  0.0016223914
  855.127991  0.00261677871  0.00156985514
  867.047974  0.00256980187  0.00151898235
  879.134155  0.00252664229  0.00146955124
  891.388855  0.00248257606  0.00141564745
  903.814331  0.00243653334  0.00136365532
  916.413025  0.00238999375  0.00131357287
  929.187317  0.00234360201  0.00126532966
  942.139648  0.0022977856  0.00121885841
  955.272583  0.00225283927  0.00117377366
  968.588562  0.00220859307  0.0011290462
  982.09021  0.00216411171  0.00108524761
  995.779968  0.00211967179  0.00104314892
  1009.66058  0.00207577483  0.00100267911
  1023.7348  0.00203363854  0.000963781495
  1038.005  0.00199303823  0.000924860942
  1052.47424  0.00195244618  0.000884819427
  1067.14514  0.00191027159  0.000845069881
  1082.02051  0.00186723901  0.000807101431
  1097.10339  0.00182401447  0.000770840212
  1112.39636  0.00178094406  0.000736206537
  1127.90259  0.00173816306  0.000703129277
  1143.62488  0.00169576507  0.000671535032
  1159.56641  0.00165381178  0.000641352788
  1175.73022  0.00161234126  0.000612521952
  1192.11926  0.00157136249  0.000584987341
  1208.73682  0.00153067696  0.000558692031
  1225.58594  0.00149012322  0.000533909013
  1242.66992  0.00145062117  0.000511187536
  1259.99194  0.00141245197  0.000489894184
  1277.55554  0.00137553154  0.00046948815
  1295.36401  0.00133975793  0.000449930201
  1313.42078  0.00130527106  0.000431171968
  1331.72913  0.00127147289  0.000412043621
  1350.29272  0.00123800628  0.000393583468
  1369.11511  0.00120494736  0.000375923526
  1388.19983  0.0011724279  0.000359056547
  1407.55054  0.0011403414  0.0003429465
  1427.17102  0.00110866304  0.00032777508
  1447.06506  0.00107791089  0.000314022414
  1467.23621  0.00104861567  0.000300961867
  1487.68884  0.00102122454  0.00028841052
  1508.42639  0.00099408708  0.000274052145
  1529.453  0.000966451073  0.000259600638
  1550.77271  0.0009381891  0.000246109441
  1572.38977  0.000909807102  0.000233984785
  1594.30786  0.000882222608  0.000223469149
  1616.53174  0.000855906866  0.000213524661
  1639.06531  0.000830591307  0.000203938136
  1661.91296  0.00080544065  0.000194046908
  1685.0791  0.000780332251  0.000184760502
  1708.56824  0.000755786663  0.00017641345
  1732.38477  0.000731986947  0.000168592887
  1756.53333  0.000708520762  0.000160838827
  1781.01831  0.000685224426  0.000154182751
  1805.84485  0.000663393934  0.000148304898
  1831.01721  0.000641870429  0.000141600889
  1856.54065  0.000620299485  0.000135309107
  1882.41992  0.00059929362  0.00012975678
  1908.65979  0.00057907094  0.000124406724
  1935.2655  0.000559124397  0.000118640208
  1962.24194  0.000538711087  0.000112786089
  1989.59473  0.000518058601  0.000107714601
  2017.32861  0.000497654604  0.000103007813
  2045.44897  0.000477144145  9.83261634E-05
  2073.96143  0.000456168404  9.37005825E-05
  2102.87134  0.000434328482  8.91867312E-05
  2132.18433  0.000411080488  8.4838568E-05
  2161.90576  0.000385541556  8.07193428E-05
  2192.0415  0.00035512005  7.66349185E-05
  2222.59741  0.000304328278  8.77657294E-05
  2253.57935  0.000284653419  0.000132101253
  2284.99292  0.00027678872  0.000162094628
  2316.84448  0.000274261314  0.000180490621
  2349.13989  0.000282311725  0.0002117923
  2381.8855  0.000302988075  0.000215160588
  2415.08789  0.000315953628  0.000211770879
  2448.75293  0.000319738203  0.000204800686
  2482.88721  0.000321180938  0.000198571273
  2517.49707  0.000321295549  0.000192112595
  2552.58984  0.000319914892  0.000184955046
  2588.17163  0.000316436286  0.000177570822
  2624.24927  0.000311077951  0.000171155654
  2660.82983  0.000306326197  0.000166974642
  2697.92041  0.00029622906  0.00016041621
  2735.52783  0.000288173731  0.000164850047
  2773.65967  0.000287770585  0.000166646147
  2812.323  0.000289621705  0.000162986296
  2851.52539  0.000289405085  0.000156758688
  2891.27393  0.000286930182  0.000150997337
  2931.57666  0.00028419515  0.000145106285
  2972.44141  0.000280389766  0.000138730917
  3013.87549  0.000275848113  0.000132811518
  3055.88745  0.000270997814  0.000127259569
  3098.48486  0.000265349547  0.000121834579
  3141.67603  0.00025944112  0.000117789423
  3185.46924  0.000254448067  0.000115431911
  3229.8728  0.000251068472  0.000112598871
  3274.89575  0.000247620803  0.000107656
  3320.54614  0.000243323477  0.000103038183
  3366.83252  0.000238371664  9.85808074E-05
  3413.7644  0.000233227038  9.49850146E-05
  3461.35059  0.000228896577  9.19403246E-05
  3509.59961  0.000225408527  8.84907204E-05
  3558.52148  0.00022161896  8.40877983E-05
  3608.12549  0.000216917717  8.01675487E-05
  3658.4209  0.000212276878  7.65144359E-05
  3709.41724  0.000207665405  7.30517495E-05
  3761.12451  0.000203113887  6.97747091E-05
  3813.55249  0.000198618596  6.65971093E-05
  3866.71143  0.000194151275  6.35092438E-05
  3920.61133  0.00018969395  6.05629721E-05
  3975.26221  0.00018527887  5.77637365E-05
  4030.67554  0.000180941977  5.50962977E-05
  4086.86084  0.000176640795  5.24910574E-05
  4143.82959  0.000172471337  5.00457463E-05
  4201.59229  0.000168194441  4.75209708E-05
  4260.16016  0.000163842604  4.5243145E-05
  4319.54443  0.000159654592  4.33770292E-05
  4379.75635  0.000155779257  4.13362613E-05
  4440.80811  0.000151880056  3.94581184E-05
  4502.71045  0.000148073246  3.76098833E-05
  4565.47559  0.000144323698  3.58553734E-05
  4629.11572  0.000140643446  3.41770647E-05
  4693.64355  0.000137033261  3.25731889E-05
  4759.07031  0.000133489099  3.10472351E-05
  4825.40918  0.000130013024  2.9598139E-05
  4892.67285  0.000126616898  2.82368637E-05
  4960.87402  0.000123285892  2.69292977E-05
  5030.02588  0.000120038007  2.5723155E-05
  5100.14209  0.00011690383  2.45648134E-05
  5171.23486  0.000113827526  2.34215622E-05
  5243.31885  0.000110821653  2.23736897E-05
  5316.4082  0.000107960426  2.14585252E-05
  5390.51611  0.00010521974  2.03656655E-05
  5465.65723  0.000102400511  1.93965661E-05
  5541.84521  9.96691961E-05  1.84744094E-05
  5619.09521  9.70041947E-05  1.76009289E-05
  5697.42285  9.43996492E-05  1.67736725E-05
  5776.8418  9.18723599E-05  1.59986685E-05
  5857.36768  8.94320838E-05  1.52547082E-05
  5939.01611  8.70488147E-05  1.44794676E-05
  6021.80273  8.46967087E-05  1.3836674E-05
  6105.74316  8.2425875E-05  1.31666584E-05
  6190.85449  8.01967471E-05  1.25245906E-05
  6277.15186  7.80176342E-05  1.19159604E-05
  6364.65137  7.58937094E-05  1.13378983E-05
  6453.37158  7.38237723E-05  1.07874039E-05
  6543.32812  7.18057781E-05  1.02630947E-05
  6634.53809  6.98385556E-05  9.76390402E-06
  6727.02051  6.79209988E-05  9.2884984E-06
  6820.7915  6.60525329E-05  8.83600478E-06
  6915.86914  6.42322047E-05  8.40526263E-06
  7012.27295  6.24589011E-05  7.99521149E-06
  7110.02002  6.0731556E-05  7.60486455E-06
  7209.12988  5.90491145E-05  7.23327912E-06
  7309.62109  5.74103797E-05  6.87977217E-06
  7411.51318  5.58141219E-05  6.54349424E-06
  7514.82617  5.42599118E-05  6.22345487E-06
  7619.57861  5.27465709E-05  5.91882872E-06
  7725.79102  5.12729966E-05  5.62901778E-06
  7833.48438  4.98382287E-05  5.35337404E-06
  7942.67969  4.84414268E-05  5.09120491E-06
  8053.396  4.70816522E-05  4.84185102E-06
  8165.65625  4.57575989E-05  4.60465753E-06
  8279.48047  4.44685356E-05  4.37901645E-06
  8394.89258  4.32135785E-05  4.16436887E-06
  8511.91211  4.19918106E-05  3.96022233E-06
  8630.56348  4.08023225E-05  3.76610456E-06
  8750.86914  3.96442374E-05  3.58154625E-06
  8872.85156  3.8516675E-05  3.40608403E-06
  8996.53418  3.7418642E-05  3.23929657E-06
  9121.94141  3.63491017E-05  3.08068752E-06
  9249.0957  3.53075047E-05  2.92987102E-06
  9378.02344  3.42929015E-05  2.78646075E-06
  9508.74805  3.33043754E-05  2.65008657E-06
  9641.29492  3.23410495E-05  2.52041991E-06
  9775.68848  3.14020544E-05  2.39715382E-06
  9911.95703  3.04863024E-05  2.27996406E-06
  10050.125  2.95921345E-05  2.1686044E-06
  10190.2178  2.87191324E-05  2.06276309E-06
  10332.2637  2.78660864E-05  1.96214182E-06
  10476.29  2.70316359E-05  1.86649299E-06
  10622.3232  2.62142294E-05  1.77557763E-06
  10770.3926  2.54120114E-05  1.68915096E-06
  10920.5264  2.462269E-05  1.6070004E-06
  11072.7529  2.38396115E-05  1.52892721E-06
  11227.1006  2.30578098E-05  1.4547054E-06
  11383.6006  2.22663057E-05  1.38415396E-06
  11542.2822  2.14397242E-05  1.31709339E-06
  11703.1748  2.04854259E-05  1.25335453E-06
  11866.3105  1.7929231E-05  1.19275307E-06
  12031.7207  1.91125182E-05  2.82612041E-06
  12199.4365  1.90790906E-05  2.68429517E-06
  12369.4902  1.87949627E-05  2.54955216E-06
  12541.9141  1.84239525E-05  2.42158762E-06
  12716.7412  1.80098777E-05  2.30005003E-06
  12894.0059  1.75698424E-05  2.18462287E-06
  13073.7412  1.71102602E-05  2.0749892E-06
  13255.9824  1.6630358E-05  1.97084046E-06
  13440.7637  1.61163425E-05  1.87194019E-06
  13628.1211  1.5447029E-05  1.77798802E-06
  13818.0889  1.44683399E-05  2.35606217E-06
  14010.7061  1.48751942E-05  2.23948064E-06
  14206.0068  1.44834885E-05  2.1286653E-06
  14404.0312  1.37876641E-05  2.32722232E-06
  14604.8164  1.40040975E-05  2.21812297E-06
  14808.3994  1.37464795E-05  2.11415386E-06
  15014.8203  1.34591846E-05  2.01477314E-06
  15224.1182  1.31634242E-05  1.91983827E-06
  15436.335  1.28640968E-05  1.82917256E-06
  15651.5098  1.25641982E-05  1.74259492E-06
  15869.6816  1.22656129E-05  1.65993981E-06
  16090.8965  1.19695715E-05  1.58105388E-06
  16315.1953  1.16769697E-05  1.50576795E-06
  16542.6191  1.13880951E-05  1.43390128E-06
  16773.2148  1.11037198E-05  1.36533504E-06
  17007.0254  1.08242912E-05  1.29992418E-06
  17244.0938  1.0550003E-05  1.23753762E-06
  17484.4668  1.0281E-05  1.17805041E-06
  17728.1914  1.00173947E-05  1.12133057E-06
  17975.3125  9.75925104E-06  1.06724758E-06
  18225.8789  9.50651884E-06  1.01569401E-06
  18479.9375  9.25921177E-06  9.66546622E-07
  18737.5371  9.01743533E-06  9.19706963E-07
  18998.7285  8.78115588E-06  8.75077035E-07
  19263.5605  8.55033068E-06  8.32554178E-07
