 Cr Density=7.19
 Energy(eV), Delta, Beta
  30.  0.377660841  0.182799742
  31.7943592  0.32999742  0.1466102
  33.6960373  0.283659041  0.118322097
  35.7114601  0.238856941  0.0954905376
  37.8474312  0.192204833  0.0784166679
  40.1111603  0.145335257  0.0712295175
  42.5102806  0.0979528427  0.0747345164
  45.0529022  0.0540511273  0.107109621
  47.7476006  0.0597417466  0.146518871
  50.6034737  0.0750614181  0.158392772
  53.6301651  0.0908972323  0.15806073
  56.8378868  0.104476005  0.14910844
  60.2374725  0.114193983  0.131205425
  63.8403854  0.115813471  0.1101344
  67.6587982  0.112210363  0.0908595845
  71.7056046  0.103780583  0.0746903196
  75.9944458  0.0941174701  0.0625475943
  80.5398178  0.0851365849  0.0532960109
  85.3570633  0.0766384974  0.0462675355
  90.4624252  0.0693465248  0.0403138436
  95.8731613  0.0625660345  0.0350885689
  101.607513  0.0561313927  0.0310159586
  107.684845  0.0505477302  0.0276308898
  114.125687  0.0457481779  0.0250671562
  120.951752  0.0419415012  0.0226498079
  128.186096  0.0384139754  0.0200590473
  135.853149  0.0351559222  0.0176818222
  143.97879  0.032036867  0.0154950935
  152.590439  0.029124517  0.0136151714
  161.717163  0.0265185479  0.0119840261
  171.389786  0.0242501125  0.0104065426
  181.64093  0.0219734218  0.0088984184
  192.505203  0.0197634567  0.00765285036
  204.019302  0.0177987777  0.00666782027
  216.222076  0.0160617288  0.00580640417
  229.154739  0.0144835366  0.00499834027
  242.860901  0.0130202053  0.00429776357
  257.386902  0.011687804  0.00369255291
  272.781677  0.0104756588  0.00316867861
  289.09726  0.00938918069  0.00270512141
  306.388733  0.00838051271  0.00228655781
  324.714417  0.00745469006  0.00192891387
  344.1362  0.006614591  0.00162431155
  364.719635  0.00583965052  0.00134252571
  386.53421  0.00510952622  0.00110975082
  409.653564  0.00443490548  0.000921940082
  434.155701  0.00380825577  0.000776199857
  460.123383  0.00322629558  0.000656578981
  487.644257  0.00266050058  0.000553815742
  516.811157  0.00206158357  0.000465410325
  547.722595  0.00125053921  0.000388482673
  580.482971  0.000147221101  0.00283494266
  615.202759  0.00161438214  0.00226991484
  651.999146  0.00178460695  0.00186733541
  690.99646  0.00176505453  0.00165148033
  732.326233  0.00178648834  0.00148864568
  776.128052  0.00176843721  0.00125203189
  822.549744  0.00169060845  0.00104772823
  871.748047  0.0015933963  0.000854708313
  923.888916  0.00146536948  0.000696112402
  979.148499  0.00134009705  0.000568424817
  1037.71313  0.00121436676  0.000463538861
  1099.78076  0.00109692593  0.000378889468
  1165.56067  0.000987486797  0.000309622934
  1235.27515  0.000886840222  0.000253003062
  1309.15918  0.000794922584  0.000206367782
  1387.46252  0.000711146626  0.00016821023
  1470.44946  0.00063547428  0.000137082665
  1558.39966  0.000567271491  0.000111211804
  1651.61047  0.000505582429  9.01012027E-05
  1750.39648  0.000450249907  7.29628155E-05
  1855.09106  0.000400615681  5.89304727E-05
  1966.04761  0.00035618298  4.75877459E-05
  2083.64038  0.000316557445  3.84196865E-05
  2208.26709  0.000281210203  3.0967396E-05
  2340.34766  0.000249717996  2.49451004E-05
  2480.32837  0.000221686976  2.00832019E-05
  2628.6814  0.000196756126  1.61619082E-05
  2785.90771  0.000174593515  1.30017561E-05
  2952.53809  0.000154898968  1.04567407E-05
  3129.13525  0.000137402167  8.4087178E-06
  3316.29443  0.000121858349  6.76120362E-06
  3514.64868  0.000108048946  5.43645638E-06
  3724.86621  9.57774246E-05  4.37175822E-06
  3947.65771  8.48669151E-05  3.51633662E-06
  4183.77441  7.51584521E-05  2.82910082E-06
  4434.01367  6.65071348E-05  2.27704209E-06
  4699.2207  5.87764152E-05  1.83365296E-06
  4980.28955  5.18338129E-05  1.47738251E-06
  5278.17041  4.55191839E-05  1.19121307E-06
  5593.86816  3.95550342E-05  9.61247792E-07
  5928.44775  3.21786829E-05  7.76383331E-07
  6283.03955  3.1510699E-05  5.21731135E-06
  6658.83984  2.93369139E-05  4.25961844E-06
  7057.11768  2.67340529E-05  3.46890693E-06
  7479.21729  2.41615016E-05  2.81860457E-06
  7926.56348  2.17377055E-05  2.28554768E-06
  8400.66602  1.94988661E-05  1.84995122E-06
  8903.12598  1.74552515E-05  1.49483947E-06
  9435.6377  1.56025508E-05  1.206055E-06
  10000.002  1.39306367E-05  9.71754389E-07
