 Pt Density=21.45
 Energy(eV), Delta, Beta
  30.  0.290498167  0.593650162
  30.3512878  0.299627542  0.590139985
  30.7066898  0.308182895  0.586650491
  31.0662537  0.315933287  0.579074502
  31.4300251  0.32202208  0.553222179
  31.7980595  0.327663213  0.528523803
  32.1704025  0.332874417  0.504927874
  32.5471039  0.337671965  0.482385635
  32.9282188  0.342072338  0.460849822
  33.3137932  0.33292523  0.442727804
  33.7038841  0.320904523  0.425890386
  34.0985451  0.309260815  0.40969345
  34.4978218  0.29798317  0.394112587
  34.9017792  0.287060648  0.379123986
  35.310463  0.27698642  0.366487533
  35.7239342  0.269763052  0.354534537
  36.1422462  0.26316908  0.344646215
  36.5654602  0.256840259  0.33533597
  36.9936295  0.250443161  0.32675001
  37.4268074  0.244973943  0.319451511
  37.8650589  0.240033567  0.311484396
  38.3084412  0.235277131  0.30380103
  38.757019  0.230549544  0.296313494
  39.2108498  0.226408392  0.289432228
  39.6699944  0.222444907  0.281869322
  40.1345139  0.217751995  0.274194837
  40.6044693  0.213068515  0.267051041
  41.0799332  0.208337933  0.260095179
  41.5609627  0.20338729  0.253320605
  42.0476227  0.198262125  0.246931583
  42.5399857  0.192921147  0.240939438
  43.0381088  0.187689751  0.235611275
  43.5420685  0.182854906  0.230836064
  44.0519333  0.178394407  0.226235777
  44.5677605  0.174374953  0.221697912
  45.0896339  0.170874685  0.216890052
  45.6176109  0.167570889  0.211656243
  46.1517754  0.16385448  0.205625236
  46.6921959  0.159504876  0.199239001
  47.2389412  0.15402244  0.192412794
  47.7920914  0.147291601  0.185794502
  48.3517151  0.138620347  0.179615423
  48.9178963  0.128453016  0.174869582
  49.4907036  0.116838694  0.172194317
  50.0702209  0.104017161  0.172942966
  50.6565208  0.0916738063  0.178165555
  51.249691  0.0834626183  0.188259155
  51.8498039  0.0796168745  0.200446531
  52.4569435  0.0822583064  0.210993931
  53.0711937  0.0883324295  0.21765779
  53.6926346  0.0949511901  0.22036767
  54.3213577  0.101029985  0.220846817
  54.9574356  0.106306329  0.219908535
  55.6009674  0.110838674  0.217731401
  56.2520294  0.114683591  0.215310782
  56.910717  0.117984861  0.212626889
  57.5771217  0.121172026  0.209909603
  58.2513237  0.124710061  0.20676446
  58.9334259  0.128399774  0.203145117
  59.6235123  0.131890833  0.198446169
  60.3216782  0.134901702  0.192922667
  61.0280228  0.137291685  0.186632395
  61.7426338  0.138623387  0.180087209
  62.4656143  0.138754249  0.173374489
  63.1970634  0.138059363  0.166901067
  63.9370766  0.136515796  0.160668105
  64.6857529  0.134014815  0.155201316
  65.4431992  0.131078064  0.150872916
  66.2095032  0.128208518  0.147636205
  66.9847946  0.126047045  0.145572528
  67.7691574  0.124974959  0.143712163
  68.5627136  0.125344604  0.140893057
  69.3655548  0.125426993  0.135955438
  70.1777954  0.123091124  0.127631679
  70.9995422  0.0960743576  0.130032837
  71.830925  0.117162779  0.146325335
  72.6720352  0.125866592  0.136842057
  73.522995  0.12686573  0.128153056
  74.3839188  0.11642196  0.126474425
  75.254921  0.126538068  0.126728356
  76.1361313  0.128477186  0.119477309
  77.0276566  0.127988636  0.113492019
  77.9296188  0.12702021  0.108986534
  78.8421402  0.126106501  0.10436447
  79.7653503  0.124629341  0.0999384969
  80.6993713  0.123047896  0.0963149294
  81.6443253  0.121560156  0.0931214392
  82.6003494  0.120588362  0.0898234844
  83.5675659  0.119524777  0.0862783417
  84.5461121  0.118340984  0.0827467069
  85.5361099  0.117029727  0.0793473274
  86.5377045  0.115725197  0.0760396197
  87.5510254  0.114456773  0.0728277117
  88.57621  0.113412634  0.069606781
  89.6134033  0.112207502  0.0658139959
  90.6627426  0.11064855  0.062070515
  91.7243652  0.108875841  0.0585535131
  92.7984238  0.10692744  0.0549027026
  93.8850555  0.104524568  0.0512865447
  94.9844131  0.101863191  0.0482082441
  96.0966415  0.0992159992  0.0454318672
  97.2218857  0.0965514705  0.0428154729
  98.3603134  0.0938278362  0.0405016504
  99.5120773  0.0912228301  0.0385810696
  100.677322  0.08890789  0.036730919
  101.856216  0.086738959  0.0348368175
  103.048912  0.084603548  0.0329671465
  104.255569  0.0824756548  0.031059688
  105.476364  0.0802225918  0.0290869195
  106.711449  0.0778449774  0.0271989554
  107.960991  0.0750024244  0.0257098451
  109.225174  0.0734588355  0.0241713077
  110.504158  0.0709161609  0.0227470342
  111.798119  0.0685409829  0.0213863123
  113.107231  0.0661775544  0.0201720987
  114.431671  0.0638517514  0.019059401
  115.771614  0.0615097024  0.0180601217
  117.127251  0.0592169873  0.0172635857
  118.498772  0.0570417382  0.0165795423
  119.886337  0.0549861565  0.0159884244
  121.290161  0.0530068614  0.0154276639
  122.710419  0.0510995016  0.0149233565
  124.147308  0.049247928  0.0144602302
  125.601028  0.0474626869  0.0140669057
  127.071762  0.0457439721  0.0137039525
  128.559723  0.0440902337  0.0133782988
  130.065109  0.0424907543  0.0130863609
  131.58812  0.0409451909  0.0128253102
  133.128967  0.0394726135  0.0125815356
  134.687851  0.0380485132  0.0123450533
  136.264984  0.0366527736  0.0121130943
  137.860596  0.0352628641  0.0119084939
  139.474884  0.033880882  0.0117363837
  141.108078  0.0325278118  0.0116237272
  142.760391  0.0312237386  0.0115886303
  144.432068  0.0299926624  0.0116063757
  146.123306  0.028843075  0.0116575826
  147.834351  0.0277752187  0.0117232446
  149.56543  0.0267931111  0.0117806029
  151.316788  0.0258800462  0.0118087595
  153.088654  0.0249992814  0.0118003385
  154.881256  0.0241295062  0.0117623061
  156.694839  0.023253737  0.011715184
  158.529678  0.0223541837  0.0116913533
  160.386002  0.0214651618  0.011698042
  162.264053  0.0205974411  0.011740936
  164.164093  0.0197637826  0.0118288342
  166.086395  0.0189760402  0.0119519131
  168.031189  0.0182377677  0.012100325
  169.998779  0.0175563525  0.0122567452
  171.989395  0.0169225633  0.0124159409
  174.003326  0.0163299385  0.012577178
  176.040833  0.0157764256  0.0127403745
  178.102203  0.0152578987  0.0129057774
  180.187698  0.0147643462  0.0130828451
  182.297638  0.0143721914  0.0132782357
  184.432251  0.0140130753  0.0134073459
  186.591888  0.0136953592  0.0135514643
  188.77681  0.0133798542  0.0136195263
  190.987305  0.0131097613  0.0136549752
  193.223679  0.0128124068  0.0137150716
  195.486267  0.0125235589  0.013743706
  197.775314  0.0122416327  0.0137953302
  200.091187  0.0120449662  0.0138228815
  202.434174  0.0118437465  0.0138143366
  204.804596  0.0116742598  0.0137887606
  207.202774  0.0114887608  0.013723908
  209.629044  0.0112504065  0.0135982428
  212.08371  0.0109943459  0.0135197192
  214.567123  0.0106978873  0.0134304008
  217.07962  0.0104041286  0.0133629227
  219.621536  0.0101379557  0.0134196775
  222.193207  0.009862368  0.0134157753
  224.795013  0.00969049893  0.0134808142
  227.427261  0.00948627479  0.0135113923
  230.090347  0.00936201122  0.0135383112
  232.784607  0.00929391384  0.0135585936
  235.510422  0.00921081379  0.0135697676
  238.268158  0.00916005857  0.013535385
  241.058182  0.00908340421  0.0134314336
  243.880859  0.00903810188  0.0134411836
  246.736618  0.00899581332  0.0132584898
  249.625793  0.00892577879  0.0131528014
  252.548813  0.00885665324  0.0130707985
  255.506058  0.008744766  0.0129625378
  258.497955  0.00865404494  0.0128786918
  261.524841  0.00864419155  0.0127841216
  264.587189  0.00861061644  0.012676755
  267.685394  0.00862833299  0.0125225093
  270.819885  0.00855353009  0.0122728404
  273.991089  0.00842927117  0.0120921433
  277.199432  0.00830348209  0.0119445287
  280.445312  0.00818427652  0.011823778
  283.729218  0.00811542291  0.0116766533
  287.051544  0.00797991268  0.011535381
  290.412842  0.00792915747  0.0114031201
  293.813446  0.00781935919  0.0112962453
  297.253876  0.00770854065  0.011131702
  300.734589  0.00757482462  0.0110126203
  304.256073  0.0074795885  0.0109215053
  307.818817  0.00735775847  0.0108394325
  311.423248  0.00729786884  0.0107724853
  315.069855  0.00723814918  0.0107005648
  318.759216  0.00722438237  0.0106374547
  322.49176  0.00719475141  0.0105086491
  326.268005  0.00717336405  0.010409914
  330.08847  0.00717324438  0.0102952057
  333.953674  0.00716102868  0.0101354299
  337.864136  0.00710729882  0.00995657686
  341.820374  0.00702310354  0.00983482786
  345.822937  0.00695959572  0.00974849798
  349.872406  0.00693730218  0.00964306574
  353.969269  0.00693840394  0.00952623133
  358.114105  0.00693131937  0.00938262325
  362.307465  0.00691495929  0.00922696292
  366.549927  0.00687292032  0.00906199962
  370.842102  0.00681855483  0.00892951526
  375.184509  0.00678674504  0.0087978458
  379.577789  0.00676971488  0.00866086874
  384.022461  0.00675069867  0.00850776024
  388.519226  0.00671678269  0.00835427083
  393.068604  0.00668018172  0.00820620824
  397.671326  0.00665407721  0.00805760454
  402.32785  0.00663625496  0.00789071806
  407.038971  0.00659622671  0.00770935928
  411.805237  0.00652933586  0.00753350602
  416.627319  0.00645078067  0.00737313228
  421.505829  0.00637237169  0.00722851465
  426.441498  0.00630278373  0.00709765777
  431.434967  0.00624011317  0.00697083957
  436.486908  0.00618739799  0.00684607215
  441.597961  0.00613783021  0.00671482692
  446.76889  0.00608596532  0.00657759886
  452.000397  0.00602764962  0.0064418111
  457.293152  0.00596536836  0.00631157635
  462.647858  0.00590835465  0.00618846901
  468.065277  0.00586311705  0.00607191026
  473.546143  0.00581498398  0.00593727175
  479.091156  0.0057702763  0.00578845432
  484.701111  0.00569501286  0.00563177885
  490.37677  0.00560471928  0.0054916204
  496.118896  0.00551377004  0.00536924694
  501.928253  0.00541144283  0.00525464816
  507.805664  0.00529936096  0.00515338592
  513.751831  0.0051654852  0.00509896968
  519.767639  0.00512047298  0.00515380967
  525.853882  0.00516195549  0.00512407254
  532.011475  0.0052514961  0.00496813143
  538.241089  0.00520688156  0.00477823149
  544.543701  0.00513011729  0.00465906132
  550.920044  0.00510174315  0.00455963379
  557.371094  0.00508987252  0.00441720011
  563.897705  0.00499843014  0.00425627688
  570.500732  0.00491577061  0.00415194407
  577.18103  0.00484756799  0.00405043829
  583.939636  0.00477417652  0.00394320209
  590.777344  0.00471186265  0.0038426891
  597.695129  0.00464013545  0.00375312311
  604.693848  0.00455769664  0.00366555899
  611.774597  0.00449292082  0.00360781979
  618.938171  0.00446453318  0.00352984457
  626.18573  0.00441899709  0.00342536275
  633.518066  0.00434697326  0.00333596743
  640.93634  0.00431379769  0.0032464359
  648.441467  0.00427061366  0.00315789157
  656.034424  0.00419334276  0.00306623965
  663.71637  0.00413144659  0.00298389234
  671.48822  0.0040664007  0.00289819925
  679.351074  0.00400542514  0.00281635928
  687.305969  0.00394022325  0.00273816288
  695.354065  0.00387591706  0.00266260351
  703.496338  0.0037992557  0.00259190169
  711.734009  0.0037512905  0.00253691245
  720.068176  0.00367853441  0.00247736298
  728.499817  0.00362642645  0.00242174184
  737.030273  0.00358900102  0.00237151934
  745.660645  0.0035455816  0.00230260752
  754.392029  0.00349855074  0.00223525311
  763.225586  0.00345455902  0.00216975389
  772.162659  0.00340351812  0.00209979876
  781.204346  0.0033517906  0.00202929555
  790.35199  0.00329802977  0.00196588924
  799.606689  0.00324383774  0.0019044634
  808.969727  0.00318980915  0.00184495677
  818.442505  0.00313602411  0.00178731268
  828.026123  0.0030826251  0.00173146382
  837.721924  0.00302972784  0.00167720229
  847.531372  0.00297740055  0.00162375835
  857.455566  0.00292485929  0.00157183374
  867.496033  0.00287250848  0.00152156746
  877.654114  0.00282053603  0.0014729125
  887.93103  0.00276904716  0.00142581272
  898.328369  0.0027181278  0.00138021552
  908.847412  0.00266789692  0.00133608002
  919.489624  0.00261854054  0.00129326887
  930.256531  0.00256986613  0.00125110603
  941.149475  0.0025215128  0.00120988092
  952.169922  0.00247338112  0.00117001461
  963.319458  0.00242566084  0.00113146089
  974.599548  0.00237852451  0.0010941783
  986.011719  0.00233205035  0.00105812412
  997.557434  0.00228639739  0.00102326134
  1009.2384  0.00224155723  0.000989487511
  1021.05627  0.0021974009  0.000956352334
  1033.01245  0.00215377635  0.00092355645
  1045.10852  0.00211025029  0.000891879841
  1057.34644  0.00206715055  0.000861288223
  1069.72742  0.00202455814  0.000831751968
  1082.25354  0.00198252336  0.000803225499
  1094.92627  0.00194106612  0.000775678142
  1107.74744  0.00190020667  0.000749075669
  1120.71875  0.00185995921  0.000723382225
  1133.84192  0.00182033202  0.000698572199
  1147.11865  0.00178133149  0.00067461672
  1160.55103  0.00174296158  0.00065147999
  1174.14062  0.0017052273  0.000629135931
  1187.88928  0.00166813098  0.000607560622
  1201.79907  0.00163167634  0.00058671867
  1215.87158  0.0015958664  0.000566598144
  1230.10889  0.00156071584  0.000547166215
  1244.51306  0.00152627227  0.000528397562
  1259.08569  0.00149250124  0.000510029786
  1273.8291  0.00145916978  0.000492139719
  1288.74512  0.00142633263  0.000474857487
  1303.83594  0.00139399071  0.000458181079
  1319.10327  0.00136217347  0.000442089193
  1334.54944  0.00133089337  0.000426564657
  1350.17651  0.00130014808  0.000411585177
  1365.98645  0.00126993563  0.000397130527
  1381.98169  0.00124025112  0.00038318467
  1398.16406  0.00121108978  0.000369728543
  1414.53601  0.00118244556  0.000356743549
  1431.09973  0.00115431135  0.000344217144
  1447.8573  0.00112667913  0.000332126714
  1464.81116  0.00109953957  0.000320465217
  1481.96338  0.00107297255  0.000309208495
  1499.31665  0.00104688527  0.000298261293
  1516.87305  0.00102118333  0.00028758886
  1534.63501  0.000995834474  0.000277290004
  1552.60498  0.000970876834  0.00026735873
  1570.7854  0.000946313376  0.000257783802
  1589.17871  0.00092213467  0.000248551194
  1607.78723  0.000898329483  0.000239648725
  1626.61377  0.000874884834  0.00023106538
  1645.66077  0.000851788442  0.000222789677
  1664.93079  0.000829025521  0.000214810643
  1684.42651  0.000806576689  0.000207117162
  1704.15051  0.000784422969  0.000199698945
  1724.10535  0.000762556272  0.000192546679
  1744.29395  0.000740986434  0.000185644501
  1764.71887  0.000719623815  0.000178915216
  1785.38306  0.000698353688  0.00017236147
  1806.28906  0.000677161501  0.000166048369
  1827.44006  0.000656027056  0.000159966527
  1848.83875  0.000634894997  0.000154107998
  1870.48779  0.000613694661  0.000148462961
  1892.39038  0.000592336699  0.000143025114
  1914.54968  0.000570701086  0.000137786585
  1936.96814  0.00054862618  0.00013274001
  1959.64917  0.000525886717  0.000127878273
  1982.59595  0.000502152485  0.000123194826
  2005.81152  0.000476912188  0.00011868307
  2029.29858  0.000449304585  0.00011433597
  2053.06104  0.000417672039  0.000110137655
  2077.10156  0.000378017197  0.000106039384
  2101.42334  0.000307840441  0.000102065773
  2126.03027  0.000198860289  0.000276299979
  2150.92529  0.000305131718  0.000265695242
  2176.11157  0.0003116515  0.000255497551
  2201.59302  0.000126710962  0.000245691481
  2227.3728  0.000333499862  0.000348858448
  2253.45459  0.000371678645  0.000335175951
  2279.84155  0.000389207766  0.000322030945
  2306.5376  0.000399415323  0.000309400639
  2333.54614  0.00040532308  0.000297265156
  2360.87109  0.000408306543  0.000285606104
  2388.51587  0.000409140717  0.000274404883
  2416.48462  0.000408306252  0.000263643044
  2444.78052  0.000406119943  0.000253303268
  2473.40796  0.000402787322  0.000243369039
  2502.37061  0.000398425735  0.000233823652
  2531.67236  0.000393061171  0.00022465254
  2561.31714  0.000386475091  0.000215842898
  2591.30908  0.000378185243  0.000207377219
  2621.65234  0.000364008592  0.000199243819
  2652.35059  0.000333248725  0.000221497205
  2683.40869  0.000361349579  0.000212740139
  2714.83032  0.000362810155  0.000204329786
  2746.62012  0.000361021986  0.000196251509
  2778.78174  0.000357857585  0.000188492646
  2811.32007  0.000353854906  0.000181040567
  2844.2395  0.000349256326  0.000173883091
  2877.54443  0.000344183296  0.000167008868
  2911.2395  0.000338681828  0.000160406271
  2945.32886  0.000332708354  0.000154064459
  2979.81738  0.000325948902  0.00014797374
  3014.70972  0.000316021178  0.000142123361
  3050.01099  0.000313312572  0.000144984544
  3085.72534  0.000310861738  0.000139309661
  3121.85791  0.000306613598  0.000133857146
  3158.41357  0.000301791151  0.000128617336
  3195.39746  0.000296597747  0.000123582955
  3232.81421  0.00029100728  0.000118745804
  3270.66895  0.000284205045  0.000114098119
  3308.96729  0.000274979131  0.000114384384
  3347.71411  0.000275918137  0.000109934626
  3386.91455  0.000271844969  0.000105657797
  3426.57373  0.00026737625  0.00010154755
  3466.69751  0.000262753107  9.7597127E-05
  3507.29126  0.000258057669  9.38002486E-05
  3548.36011  0.000253332139  9.01512976E-05
  3589.90991  0.000248603174  8.6644206E-05
  3631.94629  0.000243887407  8.32735968E-05
  3674.47485  0.000239196132  8.00309645E-05
  3717.50171  0.000234536667  7.69055041E-05
  3761.03223  0.000229914353  7.39016396E-05
  3805.07227  0.000225337237  7.1014787E-05
  3849.62817  0.000220815316  6.82406899E-05
  3894.70557  0.000216355242  6.55738404E-05
  3940.31104  0.000211952618  6.29956703E-05
  3986.45044  0.000207599864  6.05087662E-05
  4033.13037  0.000203299584  5.81198146E-05
  4080.35669  0.000199059126  5.58253523E-05
  4128.13623  0.000194881228  5.36216612E-05
  4176.47461  0.000190767591  5.15048305E-05
  4225.37988  0.000186719233  4.94715096E-05
  4274.85742  0.000182737625  4.75186389E-05
  4324.91406  0.000178823379  4.5642515E-05
  4375.55713  0.000174979534  4.3840766E-05
  4426.79297  0.000171203836  4.21101577E-05
  4478.62891  0.000167496895  4.04375096E-05
  4531.07227  0.000163849079  3.88268782E-05
  4584.12891  0.000160263167  3.72814284E-05
  4637.80713  0.000156743656  3.58042053E-05
  4692.11426  0.00015329392  3.43882675E-05
  4747.05664  0.000149913511  3.30283838E-05
  4802.64307  0.000146601669  3.1722022E-05
  4858.87988  0.000143365774  3.04666682E-05
  4915.77539  0.00014020357  2.92362165E-05
  4973.3374  0.000137080177  2.80281129E-05
  5031.57324  0.00013398286  2.69088741E-05
  5090.49072  0.000130983579  2.58256932E-05
  5150.09814  0.00012799853  2.4775547E-05
  5210.40381  0.000125114879  2.38338671E-05
  5271.41553  0.000122325495  2.28845147E-05
  5333.1416  0.000119579396  2.19383764E-05
  5395.59082  0.000116823125  2.10339131E-05
  5458.771  0.000114141265  2.02188803E-05
  5522.69092  0.000111544912  1.94176519E-05
  5587.35938  0.00010900139  1.86508187E-05
  5652.78467  0.000106527514  1.79161598E-05
  5718.97705  0.000104120722  1.71922202E-05
  5785.94385  0.000101746373  1.64680696E-05
  5853.69482  9.93921785E-05  1.57893191E-05
  5922.23926  9.710226E-05  1.51790628E-05
  5991.58643  9.49050009E-05  1.45546801E-05
  6061.74561  9.27054862E-05  1.39337826E-05
  6132.72559  9.05275883E-05  1.33638623E-05
  6204.5376  8.84111214E-05  1.28520542E-05
  6277.18994  8.63830355E-05  1.23425953E-05
  6350.69385  8.43956295E-05  1.18343178E-05
  6425.05762  8.24198796E-05  1.13355809E-05
  6500.29248  8.04944066E-05  1.08889162E-05
  6576.4082  7.86231467E-05  1.04515329E-05
  6653.41553  7.67845195E-05  1.00315965E-05
  6731.32422  7.49924875E-05  9.63370076E-06
  6810.14502  7.32480985E-05  9.24700089E-06
  6889.88916  7.15393544E-05  8.87073202E-06
  6970.56689  6.98642616E-05  8.50976085E-06
  7052.18994  6.82263126E-05  8.1634671E-06
  7134.76807  6.6624656E-05  7.83129326E-06
  7218.31348  6.50582297E-05  7.51262769E-06
  7302.83643  6.35255929E-05  7.20724256E-06
