 Rh Density=12.41
 Energy(eV), Delta, Beta
  30.  0.277978003  0.519118071
  30.3512878  0.279081166  0.504992247
  30.7066898  0.279926509  0.491250604
  31.0662537  0.280856639  0.477882266
  31.4300251  0.282387257  0.464878112
  31.7980595  0.284351438  0.451505095
  32.1704025  0.285792798  0.434106916
  32.5471039  0.284840822  0.417208195
  32.9282188  0.282463878  0.400915474
  33.3137932  0.279022962  0.385259897
  33.7038841  0.274406821  0.370214134
  34.0985451  0.269112289  0.355756193
  34.4978218  0.263102353  0.342041999
  34.9017792  0.256097972  0.329384953
  35.310463  0.24930051  0.317843407
  35.7239342  0.242489368  0.306801587
  36.1422462  0.235592261  0.296143055
  36.5654602  0.228343472  0.285854936
  36.9936295  0.22065042  0.275924414
  37.4268074  0.212613031  0.266595989
  37.8650589  0.204215169  0.258035958
  38.3084412  0.195630521  0.249987856
  38.757019  0.186567754  0.242195964
  39.2108498  0.177004263  0.235142142
  39.6699944  0.166675597  0.23001039
  40.1345139  0.157311305  0.225774333
  40.6044693  0.147979975  0.22176148
  41.0799332  0.138388231  0.21804823
  41.5609627  0.127744272  0.216827631
  42.0476227  0.118509948  0.216558754
  42.5399857  0.109895349  0.216705486
  43.0381088  0.101334669  0.216898397
  43.5420685  0.09382952  0.220512867
  44.0519333  0.0878010318  0.224370569
  44.5677605  0.0831607208  0.228295863
  45.0896339  0.0799940154  0.232290253
  45.6176109  0.0777099952  0.235219806
  46.1517754  0.0757908374  0.23791641
  46.6921959  0.0741122589  0.240629584
  47.2389412  0.072941564  0.243372723
  47.7920914  0.0722288266  0.246147498
  48.3517151  0.0719405264  0.248954132
  48.9178963  0.072138831  0.251792967
  49.4907036  0.0732102618  0.254662901
  50.0702209  0.075048469  0.257191539
  50.6565208  0.0774312615  0.259329498
  51.249691  0.0798308179  0.260973513
  51.8498039  0.08256419  0.262626618
  52.4569435  0.0857617185  0.264290273
  53.0711937  0.0895559266  0.265944034
  53.6926346  0.0954177752  0.266992897
  54.3213577  0.100843139  0.266049743
  54.9574356  0.105747059  0.264068365
  55.6009674  0.109963857  0.262100965
  56.2520294  0.114078037  0.260150015
  56.910717  0.118208334  0.258212566
  57.5771217  0.122457847  0.256288499
  58.2513237  0.127319157  0.254380673
  58.9334259  0.132863119  0.251180351
  59.6235123  0.13809064  0.24729073
  60.3216782  0.142559394  0.242941752
  61.0280228  0.146651521  0.238670021
  61.7426338  0.150859565  0.234473214
  62.4656143  0.155448869  0.230350211
  63.1970634  0.161011711  0.226299986
  63.9370766  0.166213691  0.218764409
  64.6857529  0.170198515  0.210819647
  65.4431992  0.172932476  0.203002751
  66.2095032  0.174774021  0.195475534
  66.9847946  0.176140994  0.188227639
  67.7691574  0.177174941  0.181248665
  68.5627136  0.177939489  0.174528122
  69.3655548  0.178578168  0.168057173
  70.1777954  0.179263845  0.161571503
  70.9995422  0.179838628  0.155080542
  71.830925  0.179974392  0.148537382
  72.6720352  0.17998302  0.142270386
  73.522995  0.180088401  0.136267632
  74.3839188  0.180467695  0.130381718
  75.254921  0.182264164  0.123447426
  76.1361313  0.182255164  0.114938468
  77.0276566  0.181015283  0.10629262
  77.9296188  0.178776816  0.0982968137
  78.8421402  0.175767511  0.090902701
  79.7653503  0.172470301  0.084064573
  80.6993713  0.168948382  0.0777407065
  81.6443253  0.165216595  0.0718930811
  82.6003494  0.161386117  0.0664850622
  83.5675659  0.157563746  0.0614022613
  84.5461121  0.153756738  0.056603577
  85.5361099  0.149711668  0.0520487539
  86.5377045  0.145608917  0.047860682
  87.5510254  0.141499668  0.0440096371
  88.57621  0.137406945  0.0404684506
  89.6134033  0.13333258  0.037212044
  90.6627426  0.12932232  0.0342177302
  91.7243652  0.125380084  0.031464424
  92.7984238  0.1214981  0.0289325975
  93.8850555  0.117667161  0.0266045369
  94.9844131  0.113931425  0.0245147701
  96.0966415  0.110304937  0.0226551648
  97.2218857  0.106820159  0.0209397059
  98.3603134  0.103450954  0.0193541292
  99.5120773  0.100189969  0.0178886037
  100.677322  0.0970314965  0.0165340453
  101.856216  0.0939759985  0.0152819417
  103.048912  0.0910234675  0.014124833
  104.255569  0.0881731063  0.0130450884
  105.476364  0.0854338184  0.0119925467
  106.711449  0.0827248394  0.0109905899
  107.960991  0.0800642595  0.0100628445
  109.225174  0.0774565935  0.00921329018
  110.504158  0.0749014765  0.0084354002
  111.798119  0.0723934099  0.0077232942
  113.107231  0.069942221  0.00709472736
  114.431671  0.0675591007  0.00657997467
  115.771614  0.0652795061  0.00611804472
  117.127251  0.0630629882  0.00569045171
  118.498772  0.060898345  0.00530637102
  119.886337  0.0587610826  0.00504153827
  121.290161  0.0567529127  0.00484141381
  122.710419  0.0548371933  0.00466641691
  124.147308  0.0529964119  0.0044977353
  125.601028  0.0512450002  0.00441007363
  127.071762  0.0495749526  0.0043258802
  128.559723  0.0479769967  0.0042437911
  130.065109  0.0464410186  0.00416326197
  131.58812  0.0449361242  0.00409476226
  133.128967  0.0434894077  0.00405431772
  134.687851  0.0421060957  0.00404211506
  136.264984  0.0407942832  0.00402993383
  137.860596  0.0395332761  0.00401779078
  139.474884  0.03831774  0.00400568591
  141.108078  0.0371450521  0.00399362063
  142.760391  0.0360116176  0.00398156513
  144.432068  0.0349033289  0.00397575041
  146.123306  0.0338263176  0.00397972437
  147.834351  0.0327980183  0.00400454691
  149.56543  0.0318158939  0.00402953569
  151.316788  0.0308707617  0.00405469956
  153.088654  0.0299600344  0.00408002408
  154.881256  0.0290858336  0.00410543475
  156.694839  0.0282448549  0.00412930129
  158.529678  0.0274329297  0.00415122788
  160.386002  0.0266474597  0.00417038007
  162.264053  0.0258902349  0.00418959605
  164.164093  0.0251584332  0.00420887675
  166.086395  0.0244514197  0.00422824547
  168.031189  0.0237705447  0.00424775947
  169.998779  0.0231159255  0.00426734285
  171.989395  0.0224863794  0.00428699283
  174.003326  0.021882493  0.00430670893
  176.040833  0.021325063  0.00432658289
  178.102203  0.0207824018  0.00431089848
  180.187698  0.0202491432  0.00427714968
  182.297638  0.0197181981  0.00424268609
  184.432251  0.0191958062  0.00420852331
  186.591888  0.01868519  0.00417461991
  188.77681  0.0181865692  0.00414098101
  190.987305  0.0176998787  0.00410764152
  193.223679  0.0172256865  0.00407454558
  195.486267  0.0167641509  0.00404171785
  197.775314  0.0163152702  0.00400909595
  200.091187  0.0158829819  0.00397305144
  202.434174  0.0154588921  0.00393350981
  204.804596  0.0150431618  0.00389223057
  207.202774  0.0146354502  0.0038513781
  209.629044  0.014236833  0.00381097454
  212.08371  0.0138479155  0.00377098867
  214.567123  0.0134686064  0.00373140979
  217.07962  0.0130987326  0.00369225745
  219.621536  0.012738972  0.00365352025
  222.193207  0.0123907421  0.00361518539
  224.795013  0.0120548327  0.00357724121
  227.427261  0.0117247468  0.00352371694
  230.090347  0.0113988938  0.00347049232
  232.784607  0.0110778706  0.00341783836
  235.510422  0.0107618812  0.00336598279
  238.268158  0.010455546  0.0033149228
  241.058182  0.0101545462  0.00325626577
  243.880859  0.00985709205  0.0031895726
  246.736618  0.00955618359  0.00312282518
  249.625793  0.0092550097  0.00305747427
  252.548813  0.0089558484  0.00299405749
  255.506058  0.00865915697  0.00293301162
  258.497955  0.00836347975  0.00287404377
  261.524841  0.00807262491  0.00281628966
  264.587189  0.0077852495  0.00275773858
  267.685394  0.00749656884  0.00269320211
  270.819885  0.00720329629  0.00263017113
  273.991089  0.00690872502  0.00256861583
  277.199432  0.00661280844  0.00250850315
  280.445312  0.00630821474  0.0024497977
  283.729218  0.005993756  0.00239714421
  287.051544  0.00567592448  0.00235094596
  290.412842  0.00535733299  0.0023126353
  293.813446  0.00502874563  0.00228078174
  297.253876  0.00469346903  0.00225139596
  300.734589  0.00434755674  0.00222670264
  304.256073  0.00397176156  0.00221566041
  307.818817  0.00356931961  0.00222148444
  311.423248  0.00314043858  0.0022615951
  315.069855  0.00268476666  0.00234933686
  318.759216  0.0022226728  0.00254462613
  322.49176  0.00176238129  0.00278924871
  326.268005  0.00135011086  0.00312636653
  330.08847  0.00104243762  0.00364631275
  333.953674  0.000886254536  0.00404646806
  337.864136  0.000786006043  0.00444943365
  341.820374  0.000730042113  0.00485938694
  345.822937  0.000723862322  0.00522654457
  349.872406  0.000811880629  0.00558997039
  353.969269  0.000943135878  0.00592131121
  358.114105  0.00110152317  0.00619527418
  362.307465  0.00133691228  0.00638694363
  366.549927  0.0015439688  0.00651336694
  370.842102  0.00173163181  0.00659401994
  375.184509  0.00190968497  0.00665167486
  379.577789  0.00209477008  0.00668305671
  384.022461  0.00226029474  0.00667269714
  388.519226  0.00240088743  0.00662564952
  393.068604  0.00250203628  0.00657888595
  397.671326  0.00259122765  0.00654109986
  402.32785  0.00267481222  0.00650685048
  407.038971  0.00275601447  0.00647361344
  411.805237  0.00284199929  0.00644058455
  416.627319  0.00293839071  0.00639720308
  421.505829  0.00303667784  0.0063417363
  426.441498  0.00312377466  0.00626814784
  431.434967  0.00321069639  0.00618631812
  436.486908  0.00328633841  0.00609372417
  441.597961  0.0033486553  0.00599162932
  446.76889  0.00339472573  0.0058912267
  452.000397  0.00343452999  0.00579231139
  457.293152  0.003468849  0.00569460867
  462.647858  0.00349798426  0.00559786707
  468.065277  0.00352267106  0.00550275529
  473.546143  0.00354368053  0.00540927052
  479.091156  0.00356166204  0.00531794224
  484.701111  0.00357779837  0.00523015345
  490.37677  0.00359540526  0.00514505105
  496.118896  0.00361377094  0.00506157381
  501.928253  0.00363448705  0.00497945864
  507.805664  0.00367466896  0.0048986706
  513.751831  0.00370857725  0.00479069538
  519.767639  0.0037325446  0.0046726102
  525.853882  0.00374243339  0.0045559858
  532.011475  0.00374364597  0.00444228295
  538.241089  0.00374161778  0.00433101458
  544.543701  0.00373624149  0.00422153063
  550.920044  0.00372567424  0.00411187997
  557.371094  0.00370969251  0.00400424749
  563.897705  0.00368881226  0.00389946671
  570.500732  0.00366336177  0.00379807851
  577.18103  0.00363679137  0.00370555418
  583.939636  0.0036104701  0.00361642917
  590.777344  0.00358466688  0.00353030721
  597.695129  0.00355994166  0.00344697526
  604.693848  0.00353684905  0.00336570083
  611.774597  0.0035150391  0.00328631233
  618.938171  0.00349514093  0.00320862327
  626.18573  0.00348034524  0.00313205528
  633.518066  0.00346907065  0.00304959831
  640.93634  0.00345774274  0.00296146586
  648.441467  0.00344477454  0.00286743953
  656.034424  0.00341900042  0.00276781502
  663.71637  0.00338703976  0.00267159776
  671.48822  0.00335029792  0.00257967343
  679.351074  0.00330945896  0.00249343831
  687.305969  0.00326800765  0.00241238065
  695.354065  0.0032275205  0.0023344201
  703.496338  0.00318795792  0.00225873501
  711.734009  0.00314833689  0.00218293048
  720.068176  0.00310658664  0.00210815133
  728.499817  0.00306355464  0.00203545601
  737.030273  0.00301952893  0.00196524407
  745.660645  0.00297446712  0.00189746928
  754.392029  0.00292924163  0.00183202734
  763.225586  0.00288397702  0.00176877552
  772.162659  0.00283873524  0.00170751859
  781.204346  0.00279338704  0.00164776412
  790.35199  0.00274784863  0.00158972351
  799.606689  0.00270211697  0.00153343868
  808.969727  0.00265607308  0.00147913885
  818.442505  0.00261011627  0.00142675859
  828.026123  0.00256443629  0.00137623551
  837.721924  0.00251908926  0.0013275065
  847.531372  0.0024739427  0.00128031988
  857.455566  0.00242919987  0.00123468472
  867.496033  0.00238484307  0.00119055912
  877.654114  0.00234072958  0.00114788511
  887.93103  0.00229693344  0.00110673928
  898.328369  0.00225364487  0.00106706715
  908.847412  0.00221090671  0.00102881563
  919.489624  0.0021687774  0.000991933281
  930.256531  0.00212713936  0.000956024218
  941.149475  0.00208600727  0.000921233441
  952.169922  0.00204534037  0.000887626607
  963.319458  0.0020049829  0.000855148828
  974.599548  0.00196517678  0.00082385604
  986.011719  0.00192594808  0.000793699233
  997.557434  0.00188729388  0.000764606055
  1009.2384  0.00184930046  0.000736533315
  1021.05627  0.00181188423  0.000709282875
  1033.01245  0.00177500001  0.000682791404
  1045.10852  0.00173849962  0.000657202327
  1057.34644  0.00170245941  0.000632510928
  1069.72742  0.00166693202  0.000608718256
  1082.25354  0.00163191557  0.000585816044
  1094.92627  0.00159738713  0.000563779089
  1107.74744  0.0015634381  0.00054257072
  1120.71875  0.00153006974  0.000522159273
  1133.84192  0.00149724446  0.000502515351
  1147.11865  0.00146497285  0.000483614334
  1160.55103  0.00143328775  0.00046542348
  1174.14062  0.00140218611  0.000447914761
  1187.88928  0.00137161033  0.000431063876
  1201.79907  0.00134160975  0.00041484696
  1215.87158  0.00131218147  0.000399241399
  1230.10889  0.00128330337  0.000384223909
  1244.51306  0.00125495356  0.00036977636
  1259.08569  0.00122716161  0.000355879049
  1273.8291  0.00119992089  0.000342510903
  1288.74512  0.00117321347  0.000329653325
  1303.83594  0.0011470376  0.000317275291
  1319.10327  0.00112139608  0.000305362802
  1334.54944  0.00109627901  0.000293899706
  1350.17651  0.00107165682  0.000282866968
  1365.98645  0.00104754837  0.000272245466
  1381.98169  0.00102394377  0.000262021669
  1398.16406  0.00100082648  0.000252184283
  1414.53601  0.000978187891  0.000242716458
  1431.09973  0.000956037722  0.000233603743
  1447.8573  0.000934369862  0.000224830495
  1464.81116  0.000913180935  0.000216367742
  1481.96338  0.0008924703  0.000208197845
  1499.31665  0.000872196164  0.000200275856
  1516.87305  0.000852326863  0.000192566848
  1534.63501  0.000832799706  0.0001851376
  1552.60498  0.000813662366  0.000177995913
  1570.7854  0.00079491426  0.000171130727
  1589.17871  0.000776547997  0.000164530589
  1607.78723  0.000758558628  0.000158184092
  1626.61377  0.000740952324  0.000152080844
  1645.66077  0.000723722507  0.000146211751
  1664.93079  0.000706850318  0.000140571763
  1684.42651  0.000690341287  0.00013514905
  1704.15051  0.000674202282  0.000129935273
  1724.10535  0.000658433128  0.00012492208
  1744.29395  0.000642990402  0.00012004983
  1764.71887  0.000627869566  0.000115355011
  1785.38306  0.000613064272  0.000110834117
  1806.28906  0.000598559855  0.000106481042
  1827.44006  0.000584349968  0.00010229669
  1848.83875  0.00057044375  9.82767378E-05
  1870.48779  0.000556836894  9.44153362E-05
  1892.39038  0.000543510425  9.07074282E-05
  1914.54968  0.000530472491  8.71447774E-05
  1936.96814  0.000517719483  8.37218176E-05
  1959.64917  0.000505241915  8.04330848E-05
  1982.59595  0.000493016036  7.72725471E-05
  2005.81152  0.000481075287  7.42495176E-05
  2029.29858  0.000469410792  7.13466143E-05
  2053.06104  0.000457993796  6.8517511E-05
  2077.10156  0.000446803053  6.57974233E-05
  2101.42334  0.000435849419  6.31813673E-05
  2126.03027  0.000425129983  6.06647882E-05
  2150.92529  0.000414617884  5.82425237E-05
  2176.11157  0.00040432575  5.59152832E-05
  2201.59302  0.000394250907  5.36783737E-05
  2227.3728  0.00038438302  5.1526622E-05
  2253.45459  0.000374701049  4.94573505E-05
  2279.84155  0.000365218613  4.74686603E-05
  2306.5376  0.000355930795  4.55573245E-05
  2333.54614  0.000346813351  4.371877E-05
  2360.87109  0.000337863865  4.19514326E-05
  2388.51587  0.000329088769  4.02531405E-05
  2416.48462  0.00032048329  3.86211614E-05
  2444.78052  0.000312002667  3.70518319E-05
  2473.40796  0.000303670997  3.5543635E-05
  2502.37061  0.000295484264  3.40944498E-05
  2531.67236  0.000287420145  3.27017478E-05
  2561.31714  0.000279441505  3.13628479E-05
  2591.30908  0.00027157311  3.00766678E-05
  2621.65234  0.000263807829  2.88412411E-05
  2652.35059  0.000256075175  2.76539213E-05
  2683.40869  0.000248367054  2.65126946E-05
  2714.83032  0.000240692636  2.5416577E-05
  2746.62012  0.000233034691  2.43639661E-05
  2778.78174  0.000225169031  2.33519804E-05
  2811.32007  0.000217152279  2.23801071E-05
  2844.2395  0.000208911966  2.14468528E-05
  2877.54443  0.000200179536  2.05503802E-05
  2911.2395  0.000190134408  1.96886485E-05
  2945.32886  0.00017749879  1.88614995E-05
  2979.81738  0.000153602494  1.80679162E-05
  3014.70972  0.000119805496  6.08717346E-05
  3050.01099  0.000158823983  5.84266927E-05
  3085.72534  0.000161767355  5.60814915E-05
  3121.85791  0.000158268071  5.38331951E-05
  3158.41357  0.000140161981  7.09909291E-05
  3195.39746  0.00016131335  6.81333113E-05
  3232.81421  0.000163841309  6.53908573E-05
  3270.66895  0.000163764096  6.27584086E-05
  3308.96729  0.000162436612  6.02313157E-05
  3347.71411  0.000160056559  5.78059626E-05
  3386.91455  0.000155333517  5.54782746E-05
  3426.57373  0.000148491468  6.16455363E-05
  3466.69751  0.000155094749  5.92240249E-05
  3507.29126  0.000154917405  5.68954747E-05
  3548.36011  0.000153773333  5.46540432E-05
  3589.90991  0.000152150067  5.2493735E-05
  3631.94629  0.000150331194  5.04152849E-05
  3674.47485  0.000148356921  4.84160155E-05
  3717.50171  0.000146235587  4.64925688E-05
  3761.03223  0.000144017744  4.46417398E-05
  3805.07227  0.000141747922  4.28614549E-05
  3849.62817  0.000139437325  4.11490582E-05
  3894.70557  0.000137070194  3.95014067E-05
  3940.31104  0.000134686488  3.79163284E-05
  3986.45044  0.000132295652  3.63927466E-05
  4033.13037  0.000129897729  3.49292095E-05
  4080.35669  0.000127491308  3.35213299E-05
  4128.13623  0.000125096311  3.21677799E-05
  4176.47461  0.000122715457  3.08668787E-05
  4225.37988  0.000120343349  2.96173694E-05
  4274.85742  0.000117987882  2.84161033E-05
  4324.91406  0.000115656476  2.72620728E-05
  4375.55713  0.000113350325  2.61536443E-05
  4426.79297  0.000111061854  2.50881931E-05
  4478.62891  0.000108802771  2.40650097E-05
  4531.07227  0.000106574247  2.30825426E-05
  4584.12891  0.000104374638  2.21391274E-05
  4637.80713  0.000102202481  2.1232654E-05
  4692.11426  0.000100063793  2.03623877E-05
  4747.05664  9.79587494E-05  1.9527055E-05
  4802.64307  9.58838791E-05  1.87248734E-05
  4858.87988  9.38420053E-05  1.79547242E-05
  4915.77539  9.18351143E-05  1.72155997E-05
  4973.3374  8.98630242E-05  1.65063284E-05
  5031.57324  8.79215586E-05  1.58251078E-05
  5090.49072  8.60154032E-05  1.51715121E-05
  5150.09814  8.41442452E-05  1.45444155E-05
  5210.40381  8.23064765E-05  1.39426174E-05
  5271.41553  8.0501457E-05  1.33651847E-05
  5333.1416  7.87311292E-05  1.28111851E-05
  5395.59082  7.69950711E-05  1.22796646E-05
  5458.771  7.52908818E-05  1.17696572E-05
  5522.69092  7.36197835E-05  1.12803991E-05
  5587.35938  7.19820091E-05  1.08111362E-05
  5652.78467  7.0376911E-05  1.0361111E-05
  5718.97705  6.88026121E-05  9.92939749E-06
  5785.94385  6.72605311E-05  9.51536731E-06
  5853.69482  6.57501587E-05  9.11832467E-06
  5922.23926  6.42703235E-05  8.73755562E-06
  5991.58643  6.28205744E-05  8.37235439E-06
  6061.74561  6.14012315E-05  8.02223803E-06
  6132.72559  6.00117637E-05  7.68660084E-06
  6204.5376  5.86508322E-05  7.36466518E-06
  6277.18994  5.73187099E-05  7.05604043E-06
  6350.69385  5.60151129E-05  6.76019863E-06
  6425.05762  5.47394447E-05  6.47660727E-06
  6500.29248  5.34904648E-05  6.20467063E-06
  6576.4082  5.22686678E-05  5.94403718E-06
  6653.41553  5.10734862E-05  5.69423037E-06
  6731.32422  4.9904007E-05  5.45478451E-06
  6810.14502  4.87598554E-05  5.22521441E-06
  6889.88916  4.76408677E-05  5.00521173E-06
  6970.56689  4.65465491E-05  4.79440223E-06
  7052.18994  4.54759684E-05  4.59238208E-06
